0.000000000000000000e+00
0.000000000000000000e+00
2.783200000000000118e-01
2.783200000000000118e-01
2.783200000000000118e-01
2.783200000000000118e-01
2.783200000000000118e-01
2.783200000000000118e-01
2.783200000000000118e-01
2.783200000000000118e-01
2.783200000000000118e-01
2.734380000000000144e-01
2.734380000000000144e-01
2.734380000000000144e-01
2.734380000000000144e-01
2.734380000000000144e-01
2.734380000000000144e-01
2.734380000000000144e-01
2.734380000000000144e-01
2.734380000000000144e-01
2.734380000000000144e-01
2.685549999999999882e-01
2.685549999999999882e-01
2.685549999999999882e-01
2.685549999999999882e-01
2.685549999999999882e-01
2.685549999999999882e-01
2.685549999999999882e-01
2.685549999999999882e-01
2.685549999999999882e-01
2.685549999999999882e-01
2.685549999999999882e-01
2.636720000000000175e-01
2.636720000000000175e-01
2.636720000000000175e-01
2.636720000000000175e-01
2.636720000000000175e-01
2.636720000000000175e-01
2.636720000000000175e-01
2.636720000000000175e-01
2.636720000000000175e-01
2.636720000000000175e-01
2.587889999999999913e-01
2.587889999999999913e-01
2.587889999999999913e-01
2.587889999999999913e-01
2.587889999999999913e-01
2.587889999999999913e-01
2.587889999999999913e-01
2.587889999999999913e-01
2.587889999999999913e-01
2.587889999999999913e-01
2.587889999999999913e-01
2.539060000000000206e-01
2.539060000000000206e-01
2.539060000000000206e-01
2.539060000000000206e-01
2.539060000000000206e-01
2.539060000000000206e-01
2.539060000000000206e-01
2.539060000000000206e-01
2.539060000000000206e-01
2.539060000000000206e-01
2.490229999999999944e-01
2.490229999999999944e-01
2.490229999999999944e-01
2.490229999999999944e-01
2.490229999999999944e-01
2.490229999999999944e-01
2.490229999999999944e-01
2.490229999999999944e-01
2.490229999999999944e-01
2.490229999999999944e-01
2.490229999999999944e-01
2.441409999999999969e-01
2.441409999999999969e-01
2.441409999999999969e-01
2.441409999999999969e-01
2.441409999999999969e-01
2.441409999999999969e-01
2.441409999999999969e-01
2.441409999999999969e-01
2.441409999999999969e-01
2.441409999999999969e-01
2.441409999999999969e-01
2.392579999999999985e-01
2.392579999999999985e-01
2.392579999999999985e-01
2.392579999999999985e-01
2.392579999999999985e-01
2.392579999999999985e-01
2.392579999999999985e-01
2.392579999999999985e-01
2.392579999999999985e-01
2.392579999999999985e-01
2.392579999999999985e-01
2.343750000000000000e-01
2.343750000000000000e-01
2.343750000000000000e-01
2.343750000000000000e-01
2.343750000000000000e-01
2.343750000000000000e-01
2.343750000000000000e-01
2.343750000000000000e-01
2.343750000000000000e-01
2.343750000000000000e-01
2.343750000000000000e-01
2.294920000000000015e-01
2.294920000000000015e-01
2.294920000000000015e-01
2.294920000000000015e-01
2.294920000000000015e-01
2.294920000000000015e-01
2.294920000000000015e-01
2.294920000000000015e-01
2.294920000000000015e-01
2.294920000000000015e-01
2.294920000000000015e-01
2.294920000000000015e-01
2.246090000000000031e-01
2.246090000000000031e-01
2.246090000000000031e-01
2.246090000000000031e-01
2.246090000000000031e-01
2.246090000000000031e-01
2.246090000000000031e-01
2.246090000000000031e-01
2.246090000000000031e-01
2.246090000000000031e-01
2.246090000000000031e-01
2.197270000000000056e-01
2.197270000000000056e-01
2.197270000000000056e-01
2.197270000000000056e-01
2.197270000000000056e-01
2.197270000000000056e-01
2.197270000000000056e-01
2.197270000000000056e-01
2.197270000000000056e-01
2.197270000000000056e-01
2.197270000000000056e-01
2.148440000000000072e-01
2.148440000000000072e-01
2.148440000000000072e-01
2.148440000000000072e-01
2.148440000000000072e-01
2.148440000000000072e-01
2.148440000000000072e-01
2.148440000000000072e-01
2.148440000000000072e-01
2.148440000000000072e-01
2.148440000000000072e-01
2.148440000000000072e-01
2.099610000000000087e-01
2.099610000000000087e-01
2.099610000000000087e-01
2.099610000000000087e-01
2.099610000000000087e-01
2.099610000000000087e-01
2.099610000000000087e-01
2.099610000000000087e-01
2.099610000000000087e-01
2.099610000000000087e-01
2.099610000000000087e-01
2.099610000000000087e-01
2.050780000000000103e-01
2.050780000000000103e-01
2.050780000000000103e-01
2.050780000000000103e-01
2.050780000000000103e-01
2.050780000000000103e-01
2.050780000000000103e-01
2.050780000000000103e-01
2.050780000000000103e-01
2.050780000000000103e-01
2.050780000000000103e-01
2.050780000000000103e-01
2.001950000000000118e-01
2.001950000000000118e-01
2.001950000000000118e-01
2.001950000000000118e-01
2.001950000000000118e-01
2.001950000000000118e-01
2.001950000000000118e-01
2.001950000000000118e-01
2.001950000000000118e-01
2.001950000000000118e-01
2.001950000000000118e-01
2.001950000000000118e-01
1.953129999999999866e-01
1.953129999999999866e-01
1.953129999999999866e-01
1.953129999999999866e-01
1.953129999999999866e-01
1.953129999999999866e-01
1.953129999999999866e-01
1.953129999999999866e-01
1.953129999999999866e-01
1.953129999999999866e-01
1.953129999999999866e-01
1.953129999999999866e-01
1.953129999999999866e-01
1.904299999999999882e-01
1.904299999999999882e-01
1.904299999999999882e-01
1.904299999999999882e-01
1.904299999999999882e-01
1.904299999999999882e-01
1.904299999999999882e-01
1.904299999999999882e-01
1.904299999999999882e-01
1.904299999999999882e-01
1.904299999999999882e-01
1.904299999999999882e-01
1.855469999999999897e-01
1.855469999999999897e-01
1.855469999999999897e-01
1.855469999999999897e-01
1.855469999999999897e-01
1.855469999999999897e-01
1.855469999999999897e-01
1.855469999999999897e-01
1.855469999999999897e-01
1.855469999999999897e-01
1.855469999999999897e-01
1.855469999999999897e-01
1.855469999999999897e-01
1.806639999999999913e-01
1.806639999999999913e-01
1.806639999999999913e-01
1.806639999999999913e-01
1.806639999999999913e-01
1.806639999999999913e-01
1.806639999999999913e-01
1.806639999999999913e-01
1.806639999999999913e-01
1.806639999999999913e-01
1.806639999999999913e-01
1.806639999999999913e-01
1.806639999999999913e-01
1.757809999999999928e-01
1.757809999999999928e-01
1.757809999999999928e-01
1.757809999999999928e-01
1.757809999999999928e-01
1.757809999999999928e-01
1.757809999999999928e-01
1.757809999999999928e-01
1.757809999999999928e-01
1.757809999999999928e-01
1.757809999999999928e-01
1.757809999999999928e-01
1.757809999999999928e-01
1.708979999999999944e-01
1.708979999999999944e-01
1.708979999999999944e-01
1.708979999999999944e-01
1.708979999999999944e-01
1.708979999999999944e-01
1.708979999999999944e-01
1.708979999999999944e-01
1.708979999999999944e-01
1.708979999999999944e-01
1.708979999999999944e-01
1.708979999999999944e-01
1.708979999999999944e-01
1.660159999999999969e-01
1.660159999999999969e-01
1.660159999999999969e-01
1.660159999999999969e-01
1.660159999999999969e-01
1.660159999999999969e-01
1.660159999999999969e-01
1.660159999999999969e-01
1.660159999999999969e-01
1.660159999999999969e-01
1.660159999999999969e-01
1.660159999999999969e-01
1.660159999999999969e-01
1.611329999999999985e-01
1.611329999999999985e-01
1.611329999999999985e-01
1.611329999999999985e-01
1.611329999999999985e-01
1.611329999999999985e-01
1.611329999999999985e-01
1.611329999999999985e-01
1.611329999999999985e-01
1.611329999999999985e-01
1.611329999999999985e-01
1.611329999999999985e-01
1.611329999999999985e-01
1.611329999999999985e-01
1.562500000000000000e-01
1.562500000000000000e-01
1.562500000000000000e-01
1.562500000000000000e-01
1.562500000000000000e-01
1.562500000000000000e-01
1.562500000000000000e-01
1.562500000000000000e-01
1.562500000000000000e-01
1.562500000000000000e-01
1.562500000000000000e-01
1.562500000000000000e-01
1.562500000000000000e-01
1.562500000000000000e-01
1.513670000000000015e-01
1.513670000000000015e-01
1.513670000000000015e-01
1.513670000000000015e-01
1.513670000000000015e-01
1.513670000000000015e-01
1.513670000000000015e-01
1.513670000000000015e-01
1.513670000000000015e-01
1.513670000000000015e-01
1.513670000000000015e-01
1.513670000000000015e-01
1.513670000000000015e-01
1.513670000000000015e-01
1.464840000000000031e-01
1.464840000000000031e-01
1.464840000000000031e-01
1.464840000000000031e-01
1.464840000000000031e-01
1.464840000000000031e-01
1.464840000000000031e-01
1.464840000000000031e-01
1.464840000000000031e-01
1.464840000000000031e-01
1.464840000000000031e-01
1.464840000000000031e-01
1.464840000000000031e-01
1.464840000000000031e-01
1.464840000000000031e-01
1.416020000000000056e-01
1.416020000000000056e-01
1.416020000000000056e-01
1.416020000000000056e-01
1.416020000000000056e-01
1.416020000000000056e-01
1.416020000000000056e-01
1.416020000000000056e-01
1.416020000000000056e-01
1.416020000000000056e-01
1.416020000000000056e-01
1.416020000000000056e-01
1.416020000000000056e-01
1.416020000000000056e-01
1.416020000000000056e-01
1.367190000000000072e-01
1.367190000000000072e-01
1.367190000000000072e-01
1.367190000000000072e-01
1.367190000000000072e-01
1.367190000000000072e-01
1.367190000000000072e-01
1.367190000000000072e-01
1.367190000000000072e-01
1.367190000000000072e-01
1.367190000000000072e-01
1.367190000000000072e-01
1.367190000000000072e-01
1.367190000000000072e-01
1.367190000000000072e-01
1.318360000000000087e-01
1.318360000000000087e-01
1.318360000000000087e-01
1.318360000000000087e-01
1.318360000000000087e-01
1.318360000000000087e-01
1.318360000000000087e-01
1.318360000000000087e-01
1.318360000000000087e-01
1.318360000000000087e-01
1.318360000000000087e-01
1.318360000000000087e-01
1.318360000000000087e-01
1.318360000000000087e-01
1.318360000000000087e-01
1.269530000000000103e-01
1.269530000000000103e-01
1.269530000000000103e-01
1.269530000000000103e-01
1.269530000000000103e-01
1.269530000000000103e-01
1.269530000000000103e-01
1.269530000000000103e-01
1.269530000000000103e-01
1.269530000000000103e-01
1.269530000000000103e-01
1.269530000000000103e-01
1.269530000000000103e-01
1.269530000000000103e-01
1.269530000000000103e-01
1.269530000000000103e-01
1.220699999999999980e-01
1.220699999999999980e-01
1.220699999999999980e-01
1.220699999999999980e-01
1.220699999999999980e-01
1.220699999999999980e-01
1.220699999999999980e-01
1.220699999999999980e-01
1.220699999999999980e-01
1.220699999999999980e-01
1.220699999999999980e-01
1.220699999999999980e-01
1.220699999999999980e-01
1.220699999999999980e-01
1.220699999999999980e-01
1.220699999999999980e-01
1.171880000000000005e-01
1.171880000000000005e-01
1.171880000000000005e-01
1.171880000000000005e-01
1.171880000000000005e-01
1.171880000000000005e-01
1.171880000000000005e-01
1.171880000000000005e-01
1.171880000000000005e-01
1.171880000000000005e-01
1.171880000000000005e-01
1.171880000000000005e-01
1.171880000000000005e-01
1.171880000000000005e-01
1.171880000000000005e-01
1.171880000000000005e-01
1.171880000000000005e-01
1.123050000000000020e-01
1.123050000000000020e-01
1.123050000000000020e-01
1.123050000000000020e-01
1.123050000000000020e-01
1.123050000000000020e-01
1.123050000000000020e-01
1.123050000000000020e-01
1.123050000000000020e-01
1.123050000000000020e-01
1.123050000000000020e-01
1.123050000000000020e-01
1.123050000000000020e-01
1.123050000000000020e-01
1.123050000000000020e-01
1.123050000000000020e-01
1.123050000000000020e-01
1.074220000000000036e-01
1.074220000000000036e-01
1.074220000000000036e-01
1.074220000000000036e-01
1.074220000000000036e-01
1.074220000000000036e-01
1.074220000000000036e-01
1.074220000000000036e-01
1.074220000000000036e-01
1.074220000000000036e-01
1.074220000000000036e-01
1.074220000000000036e-01
1.074220000000000036e-01
1.074220000000000036e-01
1.074220000000000036e-01
1.074220000000000036e-01
1.074220000000000036e-01
1.025390000000000051e-01
1.025390000000000051e-01
1.025390000000000051e-01
1.025390000000000051e-01
1.025390000000000051e-01
1.025390000000000051e-01
1.025390000000000051e-01
1.025390000000000051e-01
1.025390000000000051e-01
1.025390000000000051e-01
1.025390000000000051e-01
1.025390000000000051e-01
1.025390000000000051e-01
1.025390000000000051e-01
1.025390000000000051e-01
1.025390000000000051e-01
1.025390000000000051e-01
1.025390000000000051e-01
9.765630000000000144e-02
9.765630000000000144e-02
9.765630000000000144e-02
9.765630000000000144e-02
9.765630000000000144e-02
9.765630000000000144e-02
9.765630000000000144e-02
9.765630000000000144e-02
9.765630000000000144e-02
9.765630000000000144e-02
9.765630000000000144e-02
9.765630000000000144e-02
9.765630000000000144e-02
9.765630000000000144e-02
9.765630000000000144e-02
9.765630000000000144e-02
9.765630000000000144e-02
9.765630000000000144e-02
9.765630000000000144e-02
9.277340000000000586e-02
9.277340000000000586e-02
9.277340000000000586e-02
9.277340000000000586e-02
9.277340000000000586e-02
9.277340000000000586e-02
9.277340000000000586e-02
9.277340000000000586e-02
9.277340000000000586e-02
9.277340000000000586e-02
9.277340000000000586e-02
9.277340000000000586e-02
9.277340000000000586e-02
9.277340000000000586e-02
9.277340000000000586e-02
9.277340000000000586e-02
9.277340000000000586e-02
9.277340000000000586e-02
9.277340000000000586e-02
8.789059999999999928e-02
8.789059999999999928e-02
8.789059999999999928e-02
8.789059999999999928e-02
8.789059999999999928e-02
8.789059999999999928e-02
8.789059999999999928e-02
8.789059999999999928e-02
8.789059999999999928e-02
8.789059999999999928e-02
8.789059999999999928e-02
8.789059999999999928e-02
8.789059999999999928e-02
8.789059999999999928e-02
8.789059999999999928e-02
8.789059999999999928e-02
8.789059999999999928e-02
8.789059999999999928e-02
8.789059999999999928e-02
8.789059999999999928e-02
8.300780000000000658e-02
8.300780000000000658e-02
8.300780000000000658e-02
8.300780000000000658e-02
8.300780000000000658e-02
8.300780000000000658e-02
8.300780000000000658e-02
8.300780000000000658e-02
8.300780000000000658e-02
8.300780000000000658e-02
8.300780000000000658e-02
8.300780000000000658e-02
8.300780000000000658e-02
8.300780000000000658e-02
8.300780000000000658e-02
8.300780000000000658e-02
8.300780000000000658e-02
8.300780000000000658e-02
8.300780000000000658e-02
8.300780000000000658e-02
7.812500000000000000e-02
7.812500000000000000e-02
7.812500000000000000e-02
7.812500000000000000e-02
7.812500000000000000e-02
7.812500000000000000e-02
7.812500000000000000e-02
7.812500000000000000e-02
7.812500000000000000e-02
7.812500000000000000e-02
7.812500000000000000e-02
7.812500000000000000e-02
7.812500000000000000e-02
7.812500000000000000e-02
7.812500000000000000e-02
7.812500000000000000e-02
7.812500000000000000e-02
7.812500000000000000e-02
7.812500000000000000e-02
7.812500000000000000e-02
7.812500000000000000e-02
7.812500000000000000e-02
7.324219999999999342e-02
7.324219999999999342e-02
7.324219999999999342e-02
7.324219999999999342e-02
7.324219999999999342e-02
7.324219999999999342e-02
7.324219999999999342e-02
7.324219999999999342e-02
7.324219999999999342e-02
7.324219999999999342e-02
7.324219999999999342e-02
7.324219999999999342e-02
7.324219999999999342e-02
7.324219999999999342e-02
7.324219999999999342e-02
7.324219999999999342e-02
7.324219999999999342e-02
7.324219999999999342e-02
7.324219999999999342e-02
7.324219999999999342e-02
7.324219999999999342e-02
7.324219999999999342e-02
6.835940000000000072e-02
6.835940000000000072e-02
6.835940000000000072e-02
6.835940000000000072e-02
6.835940000000000072e-02
6.835940000000000072e-02
6.835940000000000072e-02
6.835940000000000072e-02
6.835940000000000072e-02
6.835940000000000072e-02
6.835940000000000072e-02
6.835940000000000072e-02
6.835940000000000072e-02
6.835940000000000072e-02
6.835940000000000072e-02
6.835940000000000072e-02
6.835940000000000072e-02
6.835940000000000072e-02
6.835940000000000072e-02
6.835940000000000072e-02
6.835940000000000072e-02
6.835940000000000072e-02
6.835940000000000072e-02
6.347659999999999414e-02
6.347659999999999414e-02
6.347659999999999414e-02
6.347659999999999414e-02
6.347659999999999414e-02
6.347659999999999414e-02
6.347659999999999414e-02
6.347659999999999414e-02
6.347659999999999414e-02
6.347659999999999414e-02
6.347659999999999414e-02
6.347659999999999414e-02
6.347659999999999414e-02
6.347659999999999414e-02
6.347659999999999414e-02
6.347659999999999414e-02
6.347659999999999414e-02
6.347659999999999414e-02
6.347659999999999414e-02
6.347659999999999414e-02
6.347659999999999414e-02
6.347659999999999414e-02
6.347659999999999414e-02
6.347659999999999414e-02
6.347659999999999414e-02
5.859380000000000144e-02
5.859380000000000144e-02
5.859380000000000144e-02
5.859380000000000144e-02
5.859380000000000144e-02
5.859380000000000144e-02
5.859380000000000144e-02
5.859380000000000144e-02
5.859380000000000144e-02
5.859380000000000144e-02
5.859380000000000144e-02
5.859380000000000144e-02
5.859380000000000144e-02
5.859380000000000144e-02
5.859380000000000144e-02
5.859380000000000144e-02
5.859380000000000144e-02
5.859380000000000144e-02
5.859380000000000144e-02
5.859380000000000144e-02
5.859380000000000144e-02
5.859380000000000144e-02
5.859380000000000144e-02
5.859380000000000144e-02
5.859380000000000144e-02
5.371089999999999892e-02
5.371089999999999892e-02
5.371089999999999892e-02
5.371089999999999892e-02
5.371089999999999892e-02
5.371089999999999892e-02
5.371089999999999892e-02
5.371089999999999892e-02
5.371089999999999892e-02
5.371089999999999892e-02
5.371089999999999892e-02
5.371089999999999892e-02
5.371089999999999892e-02
5.371089999999999892e-02
5.371089999999999892e-02
5.371089999999999892e-02
5.371089999999999892e-02
5.371089999999999892e-02
5.371089999999999892e-02
5.371089999999999892e-02
5.371089999999999892e-02
5.371089999999999892e-02
5.371089999999999892e-02
5.371089999999999892e-02
5.371089999999999892e-02
5.371089999999999892e-02
4.882809999999999928e-02
4.882809999999999928e-02
4.882809999999999928e-02
4.882809999999999928e-02
4.882809999999999928e-02
4.882809999999999928e-02
4.882809999999999928e-02
4.882809999999999928e-02
4.882809999999999928e-02
4.882809999999999928e-02
4.882809999999999928e-02
4.882809999999999928e-02
4.882809999999999928e-02
4.882809999999999928e-02
4.882809999999999928e-02
4.882809999999999928e-02
4.882809999999999928e-02
4.882809999999999928e-02
4.882809999999999928e-02
4.882809999999999928e-02
4.882809999999999928e-02
4.882809999999999928e-02
4.882809999999999928e-02
4.882809999999999928e-02
4.882809999999999928e-02
4.882809999999999928e-02
4.882809999999999928e-02
4.882809999999999928e-02
4.394529999999999964e-02
4.394529999999999964e-02
4.394529999999999964e-02
4.394529999999999964e-02
4.394529999999999964e-02
4.394529999999999964e-02
4.394529999999999964e-02
4.394529999999999964e-02
4.394529999999999964e-02
4.394529999999999964e-02
4.394529999999999964e-02
4.394529999999999964e-02
4.394529999999999964e-02
4.394529999999999964e-02
4.394529999999999964e-02
4.394529999999999964e-02
4.394529999999999964e-02
4.394529999999999964e-02
4.394529999999999964e-02
4.394529999999999964e-02
4.394529999999999964e-02
4.394529999999999964e-02
4.394529999999999964e-02
4.394529999999999964e-02
4.394529999999999964e-02
4.394529999999999964e-02
4.394529999999999964e-02
4.394529999999999964e-02
4.394529999999999964e-02
3.906250000000000000e-02
3.906250000000000000e-02
3.906250000000000000e-02
3.906250000000000000e-02
3.906250000000000000e-02
3.906250000000000000e-02
3.906250000000000000e-02
3.906250000000000000e-02
3.906250000000000000e-02
3.906250000000000000e-02
3.906250000000000000e-02
3.906250000000000000e-02
3.906250000000000000e-02
3.906250000000000000e-02
3.906250000000000000e-02
3.906250000000000000e-02
3.906250000000000000e-02
3.906250000000000000e-02
3.906250000000000000e-02
3.906250000000000000e-02
3.906250000000000000e-02
3.906250000000000000e-02
3.906250000000000000e-02
3.906250000000000000e-02
3.906250000000000000e-02
3.906250000000000000e-02
3.906250000000000000e-02
3.906250000000000000e-02
3.906250000000000000e-02
3.906250000000000000e-02
3.417970000000000036e-02
3.417970000000000036e-02
3.417970000000000036e-02
3.417970000000000036e-02
3.417970000000000036e-02
3.417970000000000036e-02
3.417970000000000036e-02
3.417970000000000036e-02
3.417970000000000036e-02
3.417970000000000036e-02
3.417970000000000036e-02
3.417970000000000036e-02
3.417970000000000036e-02
3.417970000000000036e-02
3.417970000000000036e-02
3.417970000000000036e-02
3.417970000000000036e-02
3.417970000000000036e-02
3.417970000000000036e-02
3.417970000000000036e-02
3.417970000000000036e-02
3.417970000000000036e-02
3.417970000000000036e-02
3.417970000000000036e-02
3.417970000000000036e-02
3.417970000000000036e-02
3.417970000000000036e-02
3.417970000000000036e-02
3.417970000000000036e-02
3.417970000000000036e-02
3.417970000000000036e-02
3.417970000000000036e-02
3.417970000000000036e-02
2.929690000000000072e-02
2.929690000000000072e-02
2.929690000000000072e-02
2.929690000000000072e-02
2.929690000000000072e-02
2.929690000000000072e-02
2.929690000000000072e-02
2.929690000000000072e-02
2.929690000000000072e-02
2.929690000000000072e-02
2.929690000000000072e-02
2.929690000000000072e-02
2.929690000000000072e-02
2.929690000000000072e-02
2.929690000000000072e-02
2.929690000000000072e-02
2.929690000000000072e-02
2.929690000000000072e-02
2.929690000000000072e-02
2.929690000000000072e-02
2.929690000000000072e-02
2.929690000000000072e-02
2.929690000000000072e-02
2.929690000000000072e-02
2.929690000000000072e-02
2.929690000000000072e-02
2.929690000000000072e-02
2.929690000000000072e-02
2.929690000000000072e-02
2.929690000000000072e-02
2.929690000000000072e-02
2.929690000000000072e-02
2.929690000000000072e-02
2.929690000000000072e-02
2.441410000000000108e-02
2.441410000000000108e-02
2.441410000000000108e-02
2.441410000000000108e-02
2.441410000000000108e-02
2.441410000000000108e-02
2.441410000000000108e-02
2.441410000000000108e-02
2.441410000000000108e-02
2.441410000000000108e-02
2.441410000000000108e-02
2.441410000000000108e-02
2.441410000000000108e-02
2.441410000000000108e-02
2.441410000000000108e-02
2.441410000000000108e-02
2.441410000000000108e-02
2.441410000000000108e-02
2.441410000000000108e-02
2.441410000000000108e-02
2.441410000000000108e-02
2.441410000000000108e-02
2.441410000000000108e-02
2.441410000000000108e-02
2.441410000000000108e-02
2.441410000000000108e-02
2.441410000000000108e-02
2.441410000000000108e-02
2.441410000000000108e-02
2.441410000000000108e-02
2.441410000000000108e-02
2.441410000000000108e-02
2.441410000000000108e-02
2.441410000000000108e-02
2.441410000000000108e-02
2.441410000000000108e-02
2.441410000000000108e-02
2.441410000000000108e-02
1.953130000000000144e-02
1.953130000000000144e-02
1.953130000000000144e-02
1.953130000000000144e-02
1.953130000000000144e-02
1.953130000000000144e-02
1.953130000000000144e-02
1.953130000000000144e-02
1.953130000000000144e-02
1.953130000000000144e-02
1.953130000000000144e-02
1.953130000000000144e-02
1.953130000000000144e-02
1.953130000000000144e-02
1.953130000000000144e-02
1.953130000000000144e-02
1.953130000000000144e-02
1.953130000000000144e-02
1.953130000000000144e-02
1.953130000000000144e-02
1.953130000000000144e-02
1.953130000000000144e-02
1.953130000000000144e-02
1.953130000000000144e-02
1.953130000000000144e-02
1.953130000000000144e-02
1.953130000000000144e-02
1.953130000000000144e-02
1.953130000000000144e-02
1.953130000000000144e-02
1.953130000000000144e-02
1.953130000000000144e-02
1.953130000000000144e-02
1.953130000000000144e-02
1.953130000000000144e-02
1.953130000000000144e-02
1.953130000000000144e-02
1.953130000000000144e-02
1.953130000000000144e-02
1.953130000000000144e-02
1.953130000000000144e-02
1.464840000000000066e-02
1.464840000000000066e-02
1.464840000000000066e-02
1.464840000000000066e-02
1.464840000000000066e-02
1.464840000000000066e-02
1.464840000000000066e-02
1.464840000000000066e-02
1.464840000000000066e-02
1.464840000000000066e-02
1.464840000000000066e-02
1.464840000000000066e-02
1.464840000000000066e-02
1.464840000000000066e-02
1.464840000000000066e-02
1.464840000000000066e-02
1.464840000000000066e-02
1.464840000000000066e-02
1.464840000000000066e-02
1.464840000000000066e-02
1.464840000000000066e-02
1.464840000000000066e-02
1.464840000000000066e-02
1.464840000000000066e-02
1.464840000000000066e-02
1.464840000000000066e-02
1.464840000000000066e-02
1.464840000000000066e-02
1.464840000000000066e-02
1.464840000000000066e-02
1.464840000000000066e-02
1.464840000000000066e-02
1.464840000000000066e-02
1.464840000000000066e-02
1.464840000000000066e-02
1.464840000000000066e-02
1.464840000000000066e-02
1.464840000000000066e-02
1.464840000000000066e-02
1.464840000000000066e-02
1.464840000000000066e-02
1.464840000000000066e-02
1.464840000000000066e-02
1.464840000000000066e-02
1.464840000000000066e-02
1.464840000000000066e-02
1.464840000000000066e-02
9.765630000000000838e-03
9.765630000000000838e-03
9.765630000000000838e-03
9.765630000000000838e-03
9.765630000000000838e-03
9.765630000000000838e-03
9.765630000000000838e-03
9.765630000000000838e-03
9.765630000000000838e-03
9.765630000000000838e-03
9.765630000000000838e-03
9.765630000000000838e-03
9.765630000000000838e-03
9.765630000000000838e-03
9.765630000000000838e-03
9.765630000000000838e-03
9.765630000000000838e-03
9.765630000000000838e-03
9.765630000000000838e-03
9.765630000000000838e-03
9.765630000000000838e-03
9.765630000000000838e-03
9.765630000000000838e-03
9.765630000000000838e-03
9.765630000000000838e-03
9.765630000000000838e-03
9.765630000000000838e-03
9.765630000000000838e-03
9.765630000000000838e-03
9.765630000000000838e-03
9.765630000000000838e-03
9.765630000000000838e-03
9.765630000000000838e-03
9.765630000000000838e-03
9.765630000000000838e-03
9.765630000000000838e-03
9.765630000000000838e-03
9.765630000000000838e-03
9.765630000000000838e-03
9.765630000000000838e-03
9.765630000000000838e-03
9.765630000000000838e-03
9.765630000000000838e-03
9.765630000000000838e-03
9.765630000000000838e-03
9.765630000000000838e-03
9.765630000000000838e-03
9.765630000000000838e-03
9.765630000000000838e-03
9.765630000000000838e-03
9.765630000000000838e-03
9.765630000000000838e-03
9.765630000000000838e-03
9.765630000000000838e-03
4.882809999999999581e-03
4.882809999999999581e-03
4.882809999999999581e-03
4.882809999999999581e-03
4.882809999999999581e-03
4.882809999999999581e-03
4.882809999999999581e-03
4.882809999999999581e-03
4.882809999999999581e-03
4.882809999999999581e-03
4.882809999999999581e-03
4.882809999999999581e-03
4.882809999999999581e-03
4.882809999999999581e-03
4.882809999999999581e-03
4.882809999999999581e-03
4.882809999999999581e-03
4.882809999999999581e-03
4.882809999999999581e-03
4.882809999999999581e-03
4.882809999999999581e-03
4.882809999999999581e-03
4.882809999999999581e-03
4.882809999999999581e-03
4.882809999999999581e-03
4.882809999999999581e-03
4.882809999999999581e-03
4.882809999999999581e-03
4.882809999999999581e-03
4.882809999999999581e-03
4.882809999999999581e-03
4.882809999999999581e-03
4.882809999999999581e-03
4.882809999999999581e-03
4.882809999999999581e-03
4.882809999999999581e-03
4.882809999999999581e-03
4.882809999999999581e-03
4.882809999999999581e-03
4.882809999999999581e-03
4.882809999999999581e-03
4.882809999999999581e-03
4.882809999999999581e-03
4.882809999999999581e-03
4.882809999999999581e-03
4.882809999999999581e-03
4.882809999999999581e-03
4.882809999999999581e-03
4.882809999999999581e-03
4.882809999999999581e-03
4.882809999999999581e-03
4.882809999999999581e-03
4.882809999999999581e-03
4.882809999999999581e-03
4.882809999999999581e-03
4.882809999999999581e-03
4.882809999999999581e-03
4.882809999999999581e-03
4.882809999999999581e-03
4.882809999999999581e-03
4.882809999999999581e-03
4.882809999999999581e-03
4.882809999999999581e-03
4.882809999999999581e-03
4.882809999999999581e-03
4.882809999999999581e-03
4.882809999999999581e-03
0.000000000000000000e+00
0.000000000000000000e+00
0.000000000000000000e+00
0.000000000000000000e+00
0.000000000000000000e+00
0.000000000000000000e+00
0.000000000000000000e+00
0.000000000000000000e+00
0.000000000000000000e+00
0.000000000000000000e+00
0.000000000000000000e+00
0.000000000000000000e+00
0.000000000000000000e+00
0.000000000000000000e+00
0.000000000000000000e+00
0.000000000000000000e+00
0.000000000000000000e+00
0.000000000000000000e+00
0.000000000000000000e+00
0.000000000000000000e+00
0.000000000000000000e+00
0.000000000000000000e+00
0.000000000000000000e+00
0.000000000000000000e+00
0.000000000000000000e+00
0.000000000000000000e+00
0.000000000000000000e+00
0.000000000000000000e+00
0.000000000000000000e+00
0.000000000000000000e+00
0.000000000000000000e+00
0.000000000000000000e+00
0.000000000000000000e+00
0.000000000000000000e+00
0.000000000000000000e+00
0.000000000000000000e+00
0.000000000000000000e+00
0.000000000000000000e+00
0.000000000000000000e+00
0.000000000000000000e+00
0.000000000000000000e+00
0.000000000000000000e+00
0.000000000000000000e+00
0.000000000000000000e+00
0.000000000000000000e+00
0.000000000000000000e+00
0.000000000000000000e+00
0.000000000000000000e+00
0.000000000000000000e+00
0.000000000000000000e+00
0.000000000000000000e+00
0.000000000000000000e+00
0.000000000000000000e+00
0.000000000000000000e+00
0.000000000000000000e+00
0.000000000000000000e+00
0.000000000000000000e+00
0.000000000000000000e+00
0.000000000000000000e+00
0.000000000000000000e+00
0.000000000000000000e+00
0.000000000000000000e+00
0.000000000000000000e+00
0.000000000000000000e+00
0.000000000000000000e+00
0.000000000000000000e+00
0.000000000000000000e+00
0.000000000000000000e+00
0.000000000000000000e+00
0.000000000000000000e+00
0.000000000000000000e+00
0.000000000000000000e+00
0.000000000000000000e+00
0.000000000000000000e+00
0.000000000000000000e+00
0.000000000000000000e+00
0.000000000000000000e+00
0.000000000000000000e+00
0.000000000000000000e+00
0.000000000000000000e+00
0.000000000000000000e+00
0.000000000000000000e+00
0.000000000000000000e+00
-4.882809999999999581e-03
-4.882809999999999581e-03
-4.882809999999999581e-03
-4.882809999999999581e-03
-4.882809999999999581e-03
-4.882809999999999581e-03
-4.882809999999999581e-03
-4.882809999999999581e-03
-4.882809999999999581e-03
-4.882809999999999581e-03
-4.882809999999999581e-03
-4.882809999999999581e-03
-4.882809999999999581e-03
-4.882809999999999581e-03
-4.882809999999999581e-03
-4.882809999999999581e-03
-4.882809999999999581e-03
-4.882809999999999581e-03
-4.882809999999999581e-03
-4.882809999999999581e-03
-4.882809999999999581e-03
-4.882809999999999581e-03
-4.882809999999999581e-03
-4.882809999999999581e-03
-4.882809999999999581e-03
-4.882809999999999581e-03
-4.882809999999999581e-03
-4.882809999999999581e-03
-4.882809999999999581e-03
-4.882809999999999581e-03
-4.882809999999999581e-03
-4.882809999999999581e-03
-4.882809999999999581e-03
-4.882809999999999581e-03
-4.882809999999999581e-03
-4.882809999999999581e-03
-4.882809999999999581e-03
-4.882809999999999581e-03
-4.882809999999999581e-03
-4.882809999999999581e-03
-4.882809999999999581e-03
-4.882809999999999581e-03
-4.882809999999999581e-03
-4.882809999999999581e-03
-4.882809999999999581e-03
-4.882809999999999581e-03
-4.882809999999999581e-03
-4.882809999999999581e-03
-4.882809999999999581e-03
-4.882809999999999581e-03
-4.882809999999999581e-03
-4.882809999999999581e-03
-4.882809999999999581e-03
-4.882809999999999581e-03
-4.882809999999999581e-03
-4.882809999999999581e-03
-4.882809999999999581e-03
-4.882809999999999581e-03
-4.882809999999999581e-03
-4.882809999999999581e-03
-4.882809999999999581e-03
-4.882809999999999581e-03
-4.882809999999999581e-03
-4.882809999999999581e-03
-4.882809999999999581e-03
-4.882809999999999581e-03
-4.882809999999999581e-03
-4.882809999999999581e-03
-4.882809999999999581e-03
-4.882809999999999581e-03
-4.882809999999999581e-03
-4.882809999999999581e-03
-4.882809999999999581e-03
-4.882809999999999581e-03
-4.882809999999999581e-03
-4.882809999999999581e-03
-4.882809999999999581e-03
-4.882809999999999581e-03
-4.882809999999999581e-03
-4.882809999999999581e-03
-4.882809999999999581e-03
-4.882809999999999581e-03
-4.882809999999999581e-03
-4.882809999999999581e-03
-4.882809999999999581e-03
-4.882809999999999581e-03
-4.882809999999999581e-03
-4.882809999999999581e-03
-4.882809999999999581e-03
-4.882809999999999581e-03
-4.882809999999999581e-03
-4.882809999999999581e-03
-4.882809999999999581e-03
-4.882809999999999581e-03
-4.882809999999999581e-03
-4.882809999999999581e-03
-4.882809999999999581e-03
-4.882809999999999581e-03
-4.882809999999999581e-03
-4.882809999999999581e-03
-4.882809999999999581e-03
-4.882809999999999581e-03
-4.882809999999999581e-03
-4.882809999999999581e-03
-4.882809999999999581e-03
-4.882809999999999581e-03
-4.882809999999999581e-03
-4.882809999999999581e-03
-9.765630000000000838e-03
-9.765630000000000838e-03
-9.765630000000000838e-03
-9.765630000000000838e-03
-9.765630000000000838e-03
-9.765630000000000838e-03
-9.765630000000000838e-03
-9.765630000000000838e-03
-9.765630000000000838e-03
-9.765630000000000838e-03
-9.765630000000000838e-03
-9.765630000000000838e-03
-9.765630000000000838e-03
-9.765630000000000838e-03
-9.765630000000000838e-03
-9.765630000000000838e-03
-9.765630000000000838e-03
-9.765630000000000838e-03
-9.765630000000000838e-03
-9.765630000000000838e-03
-9.765630000000000838e-03
-9.765630000000000838e-03
-9.765630000000000838e-03
-9.765630000000000838e-03
-9.765630000000000838e-03
-9.765630000000000838e-03
-9.765630000000000838e-03
-9.765630000000000838e-03
-9.765630000000000838e-03
-9.765630000000000838e-03
-9.765630000000000838e-03
-9.765630000000000838e-03
-9.765630000000000838e-03
-9.765630000000000838e-03
-9.765630000000000838e-03
-9.765630000000000838e-03
-9.765630000000000838e-03
-9.765630000000000838e-03
-9.765630000000000838e-03
-9.765630000000000838e-03
-9.765630000000000838e-03
-9.765630000000000838e-03
-9.765630000000000838e-03
-9.765630000000000838e-03
-9.765630000000000838e-03
-9.765630000000000838e-03
-9.765630000000000838e-03
-9.765630000000000838e-03
-9.765630000000000838e-03
-9.765630000000000838e-03
-9.765630000000000838e-03
-9.765630000000000838e-03
-9.765630000000000838e-03
-9.765630000000000838e-03
-9.765630000000000838e-03
-9.765630000000000838e-03
-9.765630000000000838e-03
-9.765630000000000838e-03
-9.765630000000000838e-03
-9.765630000000000838e-03
-9.765630000000000838e-03
-9.765630000000000838e-03
-9.765630000000000838e-03
-9.765630000000000838e-03
-9.765630000000000838e-03
-9.765630000000000838e-03
-9.765630000000000838e-03
-9.765630000000000838e-03
-9.765630000000000838e-03
-9.765630000000000838e-03
-9.765630000000000838e-03
-9.765630000000000838e-03
-9.765630000000000838e-03
-9.765630000000000838e-03
-9.765630000000000838e-03
-9.765630000000000838e-03
-9.765630000000000838e-03
-9.765630000000000838e-03
-9.765630000000000838e-03
-9.765630000000000838e-03
-9.765630000000000838e-03
-9.765630000000000838e-03
-9.765630000000000838e-03
-9.765630000000000838e-03
-9.765630000000000838e-03
-9.765630000000000838e-03
-9.765630000000000838e-03
-9.765630000000000838e-03
-9.765630000000000838e-03
-9.765630000000000838e-03
-9.765630000000000838e-03
-9.765630000000000838e-03
-9.765630000000000838e-03
-9.765630000000000838e-03
-9.765630000000000838e-03
-9.765630000000000838e-03
-9.765630000000000838e-03
-9.765630000000000838e-03
-9.765630000000000838e-03
-9.765630000000000838e-03
-9.765630000000000838e-03
-9.765630000000000838e-03
-9.765630000000000838e-03
-9.765630000000000838e-03
-9.765630000000000838e-03
-9.765630000000000838e-03
-9.765630000000000838e-03
-9.765630000000000838e-03
-9.765630000000000838e-03
-9.765630000000000838e-03
-9.765630000000000838e-03
-9.765630000000000838e-03
-9.765630000000000838e-03
-9.765630000000000838e-03
-9.765630000000000838e-03
-9.765630000000000838e-03
-9.765630000000000838e-03
-9.765630000000000838e-03
-9.765630000000000838e-03
-9.765630000000000838e-03
-9.765630000000000838e-03
-9.765630000000000838e-03
-9.765630000000000838e-03
-9.765630000000000838e-03
-9.765630000000000838e-03
-9.765630000000000838e-03
-9.765630000000000838e-03
-9.765630000000000838e-03
-9.765630000000000838e-03
-9.765630000000000838e-03
-9.765630000000000838e-03
-9.765630000000000838e-03
-9.765630000000000838e-03
-9.765630000000000838e-03
-9.765630000000000838e-03
-9.765630000000000838e-03
-9.765630000000000838e-03
-9.765630000000000838e-03
-9.765630000000000838e-03
-9.765630000000000838e-03
-9.765630000000000838e-03
-9.765630000000000838e-03
-9.765630000000000838e-03
-9.765630000000000838e-03
-9.765630000000000838e-03
-9.765630000000000838e-03
-9.765630000000000838e-03
-9.765630000000000838e-03
-9.765630000000000838e-03
-9.765630000000000838e-03
-9.765630000000000838e-03
-9.765630000000000838e-03
-9.765630000000000838e-03
-9.765630000000000838e-03
-9.765630000000000838e-03
-9.765630000000000838e-03
-9.765630000000000838e-03
-9.765630000000000838e-03
-9.765630000000000838e-03
-9.765630000000000838e-03
-9.765630000000000838e-03
-9.765630000000000838e-03
-9.765630000000000838e-03
-9.765630000000000838e-03
-9.765630000000000838e-03
-9.765630000000000838e-03
-9.765630000000000838e-03
-9.765630000000000838e-03
-9.765630000000000838e-03
-9.765630000000000838e-03
-9.765630000000000838e-03
-9.765630000000000838e-03
-9.765630000000000838e-03
-9.765630000000000838e-03
-9.765630000000000838e-03
-9.765630000000000838e-03
-9.765630000000000838e-03
-9.765630000000000838e-03
-9.765630000000000838e-03
-9.765630000000000838e-03
-9.765630000000000838e-03
-9.765630000000000838e-03
-9.765630000000000838e-03
-9.765630000000000838e-03
-9.765630000000000838e-03
-9.765630000000000838e-03
-9.765630000000000838e-03
-9.765630000000000838e-03
-9.765630000000000838e-03
-9.765630000000000838e-03
-9.765630000000000838e-03
-9.765630000000000838e-03
-9.765630000000000838e-03
-9.765630000000000838e-03
-9.765630000000000838e-03
-9.765630000000000838e-03
-9.765630000000000838e-03
-9.765630000000000838e-03
-9.765630000000000838e-03
-9.765630000000000838e-03
-9.765630000000000838e-03
-9.765630000000000838e-03
-9.765630000000000838e-03
-9.765630000000000838e-03
-9.765630000000000838e-03
-9.765630000000000838e-03
-9.765630000000000838e-03
-9.765630000000000838e-03
-9.765630000000000838e-03
-9.765630000000000838e-03
-9.765630000000000838e-03
-9.765630000000000838e-03
-9.765630000000000838e-03
-9.765630000000000838e-03
-9.765630000000000838e-03
-9.765630000000000838e-03
-9.765630000000000838e-03
-9.765630000000000838e-03
-9.765630000000000838e-03
-9.765630000000000838e-03
-9.765630000000000838e-03
-9.765630000000000838e-03
-9.765630000000000838e-03
-9.765630000000000838e-03
-9.765630000000000838e-03
-9.765630000000000838e-03
-9.765630000000000838e-03
-9.765630000000000838e-03
-9.765630000000000838e-03
-9.765630000000000838e-03
-9.765630000000000838e-03
-9.765630000000000838e-03
-9.765630000000000838e-03
-9.765630000000000838e-03
-9.765630000000000838e-03
-9.765630000000000838e-03
-9.765630000000000838e-03
-9.765630000000000838e-03
-9.765630000000000838e-03
-9.765630000000000838e-03
-9.765630000000000838e-03
-9.765630000000000838e-03
-9.765630000000000838e-03
-9.765630000000000838e-03
-9.765630000000000838e-03
-9.765630000000000838e-03
-9.765630000000000838e-03
-9.765630000000000838e-03
-9.765630000000000838e-03
-9.765630000000000838e-03
-9.765630000000000838e-03
-9.765630000000000838e-03
-9.765630000000000838e-03
-9.765630000000000838e-03
-9.765630000000000838e-03
-9.765630000000000838e-03
-9.765630000000000838e-03
-9.765630000000000838e-03
-9.765630000000000838e-03
-9.765630000000000838e-03
-9.765630000000000838e-03
-9.765630000000000838e-03
-9.765630000000000838e-03
-9.765630000000000838e-03
-9.765630000000000838e-03
-9.765630000000000838e-03
-9.765630000000000838e-03
-9.765630000000000838e-03
-9.765630000000000838e-03
-9.765630000000000838e-03
-9.765630000000000838e-03
-9.765630000000000838e-03
-9.765630000000000838e-03
-9.765630000000000838e-03
-9.765630000000000838e-03
-9.765630000000000838e-03
-9.765630000000000838e-03
-9.765630000000000838e-03
-9.765630000000000838e-03
-9.765630000000000838e-03
-9.765630000000000838e-03
-9.765630000000000838e-03
-9.765630000000000838e-03
-9.765630000000000838e-03
-9.765630000000000838e-03
-9.765630000000000838e-03
-9.765630000000000838e-03
-9.765630000000000838e-03
-9.765630000000000838e-03
-9.765630000000000838e-03
-9.765630000000000838e-03
-9.765630000000000838e-03
-9.765630000000000838e-03
-9.765630000000000838e-03
-9.765630000000000838e-03
-9.765630000000000838e-03
-9.765630000000000838e-03
-9.765630000000000838e-03
-9.765630000000000838e-03
-9.765630000000000838e-03
-9.765630000000000838e-03
-9.765630000000000838e-03
-9.765630000000000838e-03
-9.765630000000000838e-03
-9.765630000000000838e-03
-9.765630000000000838e-03
-9.765630000000000838e-03
-9.765630000000000838e-03
-9.765630000000000838e-03
-9.765630000000000838e-03
-9.765630000000000838e-03
-9.765630000000000838e-03
-9.765630000000000838e-03
-9.765630000000000838e-03
-9.765630000000000838e-03
-9.765630000000000838e-03
-9.765630000000000838e-03
-9.765630000000000838e-03
-9.765630000000000838e-03
-9.765630000000000838e-03
-9.765630000000000838e-03
-9.765630000000000838e-03
-9.765630000000000838e-03
-9.765630000000000838e-03
-9.765630000000000838e-03
-9.765630000000000838e-03
-9.765630000000000838e-03
-9.765630000000000838e-03
-9.765630000000000838e-03
-9.765630000000000838e-03
-9.765630000000000838e-03
-9.765630000000000838e-03
-9.765630000000000838e-03
-9.765630000000000838e-03
-9.765630000000000838e-03
-9.765630000000000838e-03
-9.765630000000000838e-03
-9.765630000000000838e-03
-9.765630000000000838e-03
-9.765630000000000838e-03
-9.765630000000000838e-03
-9.765630000000000838e-03
-9.765630000000000838e-03
-9.765630000000000838e-03
-9.765630000000000838e-03
-9.765630000000000838e-03
-9.765630000000000838e-03
-9.765630000000000838e-03
-9.765630000000000838e-03
-9.765630000000000838e-03
-9.765630000000000838e-03
-9.765630000000000838e-03
-9.765630000000000838e-03
-9.765630000000000838e-03
-9.765630000000000838e-03
-9.765630000000000838e-03
-9.765630000000000838e-03
-9.765630000000000838e-03
-9.765630000000000838e-03
-9.765630000000000838e-03
-9.765630000000000838e-03
-9.765630000000000838e-03
-9.765630000000000838e-03
-9.765630000000000838e-03
-9.765630000000000838e-03
-9.765630000000000838e-03
-9.765630000000000838e-03
-9.765630000000000838e-03
-9.765630000000000838e-03
-9.765630000000000838e-03
-9.765630000000000838e-03
-9.765630000000000838e-03
-9.765630000000000838e-03
-9.765630000000000838e-03
-9.765630000000000838e-03
-9.765630000000000838e-03
-9.765630000000000838e-03
-9.765630000000000838e-03
-9.765630000000000838e-03
-9.765630000000000838e-03
-9.765630000000000838e-03
-9.765630000000000838e-03
-9.765630000000000838e-03
-9.765630000000000838e-03
-9.765630000000000838e-03
-9.765630000000000838e-03
-9.765630000000000838e-03
-9.765630000000000838e-03
-9.765630000000000838e-03
-9.765630000000000838e-03
-9.765630000000000838e-03
-9.765630000000000838e-03
-9.765630000000000838e-03
-9.765630000000000838e-03
-9.765630000000000838e-03
-9.765630000000000838e-03
-9.765630000000000838e-03
-9.765630000000000838e-03
-9.765630000000000838e-03
-9.765630000000000838e-03
-9.765630000000000838e-03
-9.765630000000000838e-03
-9.765630000000000838e-03
-9.765630000000000838e-03
-9.765630000000000838e-03
-9.765630000000000838e-03
-9.765630000000000838e-03
-9.765630000000000838e-03
-9.765630000000000838e-03
-9.765630000000000838e-03
-9.765630000000000838e-03
-9.765630000000000838e-03
-9.765630000000000838e-03
-9.765630000000000838e-03
-9.765630000000000838e-03
-9.765630000000000838e-03
-9.765630000000000838e-03
-9.765630000000000838e-03
-9.765630000000000838e-03
-9.765630000000000838e-03
-9.765630000000000838e-03
-9.765630000000000838e-03
-9.765630000000000838e-03
-9.765630000000000838e-03
-9.765630000000000838e-03
-9.765630000000000838e-03
-9.765630000000000838e-03
-9.765630000000000838e-03
-9.765630000000000838e-03
-9.765630000000000838e-03
-9.765630000000000838e-03
-9.765630000000000838e-03
-9.765630000000000838e-03
-9.765630000000000838e-03
-9.765630000000000838e-03
-9.765630000000000838e-03
-9.765630000000000838e-03
-9.765630000000000838e-03
-9.765630000000000838e-03
-9.765630000000000838e-03
-9.765630000000000838e-03
-9.765630000000000838e-03
-9.765630000000000838e-03
-9.765630000000000838e-03
-9.765630000000000838e-03
-9.765630000000000838e-03
-9.765630000000000838e-03
-9.765630000000000838e-03
-9.765630000000000838e-03
-9.765630000000000838e-03
-9.765630000000000838e-03
-9.765630000000000838e-03
-9.765630000000000838e-03
-9.765630000000000838e-03
-9.765630000000000838e-03
-9.765630000000000838e-03
-9.765630000000000838e-03
-9.765630000000000838e-03
-9.765630000000000838e-03
-9.765630000000000838e-03
-9.765630000000000838e-03
-9.765630000000000838e-03
-9.765630000000000838e-03
-9.765630000000000838e-03
-9.765630000000000838e-03
-9.765630000000000838e-03
-9.765630000000000838e-03
-9.765630000000000838e-03
-9.765630000000000838e-03
-9.765630000000000838e-03
-9.765630000000000838e-03
-9.765630000000000838e-03
-9.765630000000000838e-03
-9.765630000000000838e-03
-9.765630000000000838e-03
-9.765630000000000838e-03
-9.765630000000000838e-03
-9.765630000000000838e-03
-9.765630000000000838e-03
-9.765630000000000838e-03
-9.765630000000000838e-03
-9.765630000000000838e-03
-9.765630000000000838e-03
-9.765630000000000838e-03
-9.765630000000000838e-03
-9.765630000000000838e-03
-9.765630000000000838e-03
-9.765630000000000838e-03
-9.765630000000000838e-03
-9.765630000000000838e-03
-9.765630000000000838e-03
-9.765630000000000838e-03
-9.765630000000000838e-03
-9.765630000000000838e-03
-9.765630000000000838e-03
-9.765630000000000838e-03
-9.765630000000000838e-03
-9.765630000000000838e-03
-9.765630000000000838e-03
-9.765630000000000838e-03
-9.765630000000000838e-03
-9.765630000000000838e-03
-9.765630000000000838e-03
-9.765630000000000838e-03
-9.765630000000000838e-03
-9.765630000000000838e-03
-9.765630000000000838e-03
-9.765630000000000838e-03
-9.765630000000000838e-03
-9.765630000000000838e-03
-9.765630000000000838e-03
-9.765630000000000838e-03
-9.765630000000000838e-03
-9.765630000000000838e-03
-9.765630000000000838e-03
-9.765630000000000838e-03
-9.765630000000000838e-03
-9.765630000000000838e-03
-9.765630000000000838e-03
-9.765630000000000838e-03
-9.765630000000000838e-03
-9.765630000000000838e-03
-9.765630000000000838e-03
-9.765630000000000838e-03
-9.765630000000000838e-03
-9.765630000000000838e-03
-9.765630000000000838e-03
-9.765630000000000838e-03
-9.765630000000000838e-03
-9.765630000000000838e-03
-9.765630000000000838e-03
-9.765630000000000838e-03
-9.765630000000000838e-03
-9.765630000000000838e-03
-9.765630000000000838e-03
-9.765630000000000838e-03
-9.765630000000000838e-03
-9.765630000000000838e-03
-9.765630000000000838e-03
-9.765630000000000838e-03
-9.765630000000000838e-03
-9.765630000000000838e-03
-9.765630000000000838e-03
-9.765630000000000838e-03
-9.765630000000000838e-03
-9.765630000000000838e-03
-9.765630000000000838e-03
-9.765630000000000838e-03
-9.765630000000000838e-03
-9.765630000000000838e-03
-9.765630000000000838e-03
-9.765630000000000838e-03
-9.765630000000000838e-03
-9.765630000000000838e-03
-9.765630000000000838e-03
-9.765630000000000838e-03
-9.765630000000000838e-03
-9.765630000000000838e-03
-9.765630000000000838e-03
-9.765630000000000838e-03
-9.765630000000000838e-03
-9.765630000000000838e-03
-9.765630000000000838e-03
-9.765630000000000838e-03
-9.765630000000000838e-03
-9.765630000000000838e-03
-9.765630000000000838e-03
-9.765630000000000838e-03
-9.765630000000000838e-03
-9.765630000000000838e-03
-9.765630000000000838e-03
-9.765630000000000838e-03
-9.765630000000000838e-03
-9.765630000000000838e-03
-9.765630000000000838e-03
-9.765630000000000838e-03
-9.765630000000000838e-03
-9.765630000000000838e-03
-9.765630000000000838e-03
-9.765630000000000838e-03
-9.765630000000000838e-03
-9.765630000000000838e-03
-9.765630000000000838e-03
-9.765630000000000838e-03
-9.765630000000000838e-03
-9.765630000000000838e-03
-9.765630000000000838e-03
-9.765630000000000838e-03
-9.765630000000000838e-03
-9.765630000000000838e-03
-9.765630000000000838e-03
-9.765630000000000838e-03
-9.765630000000000838e-03
-9.765630000000000838e-03
-9.765630000000000838e-03
-9.765630000000000838e-03
-9.765630000000000838e-03
-9.765630000000000838e-03
-9.765630000000000838e-03
-4.882809999999999581e-03
-4.882809999999999581e-03
-4.882809999999999581e-03
-4.882809999999999581e-03
-4.882809999999999581e-03
-4.882809999999999581e-03
-4.882809999999999581e-03
-4.882809999999999581e-03
-4.882809999999999581e-03
-4.882809999999999581e-03
-4.882809999999999581e-03
-4.882809999999999581e-03
-4.882809999999999581e-03
-4.882809999999999581e-03
-4.882809999999999581e-03
-4.882809999999999581e-03
-4.882809999999999581e-03
-4.882809999999999581e-03
-4.882809999999999581e-03
-4.882809999999999581e-03
-4.882809999999999581e-03
-4.882809999999999581e-03
-4.882809999999999581e-03
-4.882809999999999581e-03
-4.882809999999999581e-03
-4.882809999999999581e-03
-4.882809999999999581e-03
-4.882809999999999581e-03
-4.882809999999999581e-03
-4.882809999999999581e-03
-4.882809999999999581e-03
-4.882809999999999581e-03
-4.882809999999999581e-03
-4.882809999999999581e-03
-4.882809999999999581e-03
-4.882809999999999581e-03
-4.882809999999999581e-03
-4.882809999999999581e-03
-4.882809999999999581e-03
-4.882809999999999581e-03
-4.882809999999999581e-03
-4.882809999999999581e-03
-4.882809999999999581e-03
-4.882809999999999581e-03
-4.882809999999999581e-03
-4.882809999999999581e-03
-4.882809999999999581e-03
-4.882809999999999581e-03
-4.882809999999999581e-03
-4.882809999999999581e-03
-4.882809999999999581e-03
-4.882809999999999581e-03
-4.882809999999999581e-03
-4.882809999999999581e-03
-4.882809999999999581e-03
-4.882809999999999581e-03
-4.882809999999999581e-03
-4.882809999999999581e-03
-4.882809999999999581e-03
-4.882809999999999581e-03
-4.882809999999999581e-03
-4.882809999999999581e-03
-4.882809999999999581e-03
-4.882809999999999581e-03
-4.882809999999999581e-03
-4.882809999999999581e-03
-4.882809999999999581e-03
-4.882809999999999581e-03
-4.882809999999999581e-03
-4.882809999999999581e-03
-4.882809999999999581e-03
-4.882809999999999581e-03
-4.882809999999999581e-03
-4.882809999999999581e-03
-4.882809999999999581e-03
-4.882809999999999581e-03
-4.882809999999999581e-03
-4.882809999999999581e-03
-4.882809999999999581e-03
-4.882809999999999581e-03
-4.882809999999999581e-03
-4.882809999999999581e-03
-4.882809999999999581e-03
-4.882809999999999581e-03
-4.882809999999999581e-03
-4.882809999999999581e-03
-4.882809999999999581e-03
-4.882809999999999581e-03
-4.882809999999999581e-03
-4.882809999999999581e-03
-4.882809999999999581e-03
-4.882809999999999581e-03
-4.882809999999999581e-03
-4.882809999999999581e-03
-4.882809999999999581e-03
-4.882809999999999581e-03
-4.882809999999999581e-03
-4.882809999999999581e-03
-4.882809999999999581e-03
-4.882809999999999581e-03
-4.882809999999999581e-03
-4.882809999999999581e-03
-4.882809999999999581e-03
-4.882809999999999581e-03
-4.882809999999999581e-03
-4.882809999999999581e-03
-4.882809999999999581e-03
-4.882809999999999581e-03
-4.882809999999999581e-03
-4.882809999999999581e-03
-4.882809999999999581e-03
-4.882809999999999581e-03
-4.882809999999999581e-03
-4.882809999999999581e-03
-4.882809999999999581e-03
-4.882809999999999581e-03
-4.882809999999999581e-03
-4.882809999999999581e-03
-4.882809999999999581e-03
-4.882809999999999581e-03
-4.882809999999999581e-03
-4.882809999999999581e-03
-4.882809999999999581e-03
-4.882809999999999581e-03
-4.882809999999999581e-03
-4.882809999999999581e-03
-4.882809999999999581e-03
-4.882809999999999581e-03
-4.882809999999999581e-03
-4.882809999999999581e-03
-4.882809999999999581e-03
-4.882809999999999581e-03
-4.882809999999999581e-03
-4.882809999999999581e-03
-4.882809999999999581e-03
-4.882809999999999581e-03
-4.882809999999999581e-03
-4.882809999999999581e-03
-4.882809999999999581e-03
-4.882809999999999581e-03
-4.882809999999999581e-03
-4.882809999999999581e-03
-4.882809999999999581e-03
-4.882809999999999581e-03
-4.882809999999999581e-03
-4.882809999999999581e-03
-4.882809999999999581e-03
-4.882809999999999581e-03
-4.882809999999999581e-03
-4.882809999999999581e-03
-4.882809999999999581e-03
-4.882809999999999581e-03
-4.882809999999999581e-03
-4.882809999999999581e-03
-4.882809999999999581e-03
-4.882809999999999581e-03
-4.882809999999999581e-03
-4.882809999999999581e-03
-4.882809999999999581e-03
-4.882809999999999581e-03
-4.882809999999999581e-03
-4.882809999999999581e-03
-4.882809999999999581e-03
-4.882809999999999581e-03
-4.882809999999999581e-03
-4.882809999999999581e-03
-4.882809999999999581e-03
-4.882809999999999581e-03
-4.882809999999999581e-03
-4.882809999999999581e-03
-4.882809999999999581e-03
-4.882809999999999581e-03
-4.882809999999999581e-03
-4.882809999999999581e-03
-4.882809999999999581e-03
-4.882809999999999581e-03
-4.882809999999999581e-03
-4.882809999999999581e-03
-4.882809999999999581e-03
-4.882809999999999581e-03
-4.882809999999999581e-03
-4.882809999999999581e-03
-4.882809999999999581e-03
-4.882809999999999581e-03
-4.882809999999999581e-03
-4.882809999999999581e-03
-4.882809999999999581e-03
-4.882809999999999581e-03
-4.882809999999999581e-03
-4.882809999999999581e-03
-4.882809999999999581e-03
-4.882809999999999581e-03
-4.882809999999999581e-03
-4.882809999999999581e-03
-4.882809999999999581e-03
-4.882809999999999581e-03
-4.882809999999999581e-03
-4.882809999999999581e-03
-4.882809999999999581e-03
-4.882809999999999581e-03
-4.882809999999999581e-03
-4.882809999999999581e-03
-4.882809999999999581e-03
-4.882809999999999581e-03
-4.882809999999999581e-03
-4.882809999999999581e-03
-4.882809999999999581e-03
-4.882809999999999581e-03
-4.882809999999999581e-03
-4.882809999999999581e-03
-4.882809999999999581e-03
-4.882809999999999581e-03
-4.882809999999999581e-03
-4.882809999999999581e-03
-4.882809999999999581e-03
-4.882809999999999581e-03
-4.882809999999999581e-03
-4.882809999999999581e-03
-4.882809999999999581e-03
-4.882809999999999581e-03
-4.882809999999999581e-03
-4.882809999999999581e-03
-4.882809999999999581e-03
-4.882809999999999581e-03
-4.882809999999999581e-03
-4.882809999999999581e-03
-4.882809999999999581e-03
-4.882809999999999581e-03
-4.882809999999999581e-03
-4.882809999999999581e-03
-4.882809999999999581e-03
-4.882809999999999581e-03
-4.882809999999999581e-03
-4.882809999999999581e-03
-4.882809999999999581e-03
-4.882809999999999581e-03
-4.882809999999999581e-03
-4.882809999999999581e-03
-4.882809999999999581e-03
-4.882809999999999581e-03
-4.882809999999999581e-03
-4.882809999999999581e-03
-4.882809999999999581e-03
-4.882809999999999581e-03
-4.882809999999999581e-03
-4.882809999999999581e-03
-4.882809999999999581e-03
-4.882809999999999581e-03
-4.882809999999999581e-03
-4.882809999999999581e-03
-4.882809999999999581e-03
-4.882809999999999581e-03
-4.882809999999999581e-03
-4.882809999999999581e-03
-4.882809999999999581e-03
-4.882809999999999581e-03
-4.882809999999999581e-03
-4.882809999999999581e-03
-4.882809999999999581e-03
-4.882809999999999581e-03
-4.882809999999999581e-03
-4.882809999999999581e-03
-4.882809999999999581e-03
-4.882809999999999581e-03
-4.882809999999999581e-03
-4.882809999999999581e-03
-4.882809999999999581e-03
-4.882809999999999581e-03
-4.882809999999999581e-03
-4.882809999999999581e-03
-4.882809999999999581e-03
-4.882809999999999581e-03
-4.882809999999999581e-03
-4.882809999999999581e-03
-4.882809999999999581e-03
-4.882809999999999581e-03
-4.882809999999999581e-03
-4.882809999999999581e-03
-4.882809999999999581e-03
-4.882809999999999581e-03
-4.882809999999999581e-03
-4.882809999999999581e-03
-4.882809999999999581e-03
-4.882809999999999581e-03
-4.882809999999999581e-03
-4.882809999999999581e-03
-4.882809999999999581e-03
-4.882809999999999581e-03
-4.882809999999999581e-03
-4.882809999999999581e-03
-4.882809999999999581e-03
-4.882809999999999581e-03
-4.882809999999999581e-03
-4.882809999999999581e-03
-4.882809999999999581e-03
-4.882809999999999581e-03
-4.882809999999999581e-03
-4.882809999999999581e-03
-4.882809999999999581e-03
-4.882809999999999581e-03
-4.882809999999999581e-03
-4.882809999999999581e-03
-4.882809999999999581e-03
-4.882809999999999581e-03
-4.882809999999999581e-03
-4.882809999999999581e-03
-4.882809999999999581e-03
-4.882809999999999581e-03
-4.882809999999999581e-03
-4.882809999999999581e-03
-4.882809999999999581e-03
-4.882809999999999581e-03
-4.882809999999999581e-03
-4.882809999999999581e-03
-4.882809999999999581e-03
-4.882809999999999581e-03
-4.882809999999999581e-03
-4.882809999999999581e-03
-4.882809999999999581e-03
-4.882809999999999581e-03
-4.882809999999999581e-03
-4.882809999999999581e-03
0.000000000000000000e+00
0.000000000000000000e+00
0.000000000000000000e+00
0.000000000000000000e+00
0.000000000000000000e+00
0.000000000000000000e+00
0.000000000000000000e+00
0.000000000000000000e+00
0.000000000000000000e+00
0.000000000000000000e+00
0.000000000000000000e+00
0.000000000000000000e+00
0.000000000000000000e+00
0.000000000000000000e+00
0.000000000000000000e+00
0.000000000000000000e+00
0.000000000000000000e+00
0.000000000000000000e+00
0.000000000000000000e+00
0.000000000000000000e+00
0.000000000000000000e+00
0.000000000000000000e+00
0.000000000000000000e+00
0.000000000000000000e+00
0.000000000000000000e+00
0.000000000000000000e+00
0.000000000000000000e+00
0.000000000000000000e+00
0.000000000000000000e+00
0.000000000000000000e+00
0.000000000000000000e+00
0.000000000000000000e+00
0.000000000000000000e+00
0.000000000000000000e+00
0.000000000000000000e+00
0.000000000000000000e+00
0.000000000000000000e+00
0.000000000000000000e+00
0.000000000000000000e+00
0.000000000000000000e+00
0.000000000000000000e+00
0.000000000000000000e+00
0.000000000000000000e+00
0.000000000000000000e+00
0.000000000000000000e+00
0.000000000000000000e+00
0.000000000000000000e+00
0.000000000000000000e+00
0.000000000000000000e+00
0.000000000000000000e+00
0.000000000000000000e+00
0.000000000000000000e+00
0.000000000000000000e+00
0.000000000000000000e+00
0.000000000000000000e+00
0.000000000000000000e+00
0.000000000000000000e+00
0.000000000000000000e+00
0.000000000000000000e+00
0.000000000000000000e+00
0.000000000000000000e+00
0.000000000000000000e+00
0.000000000000000000e+00
0.000000000000000000e+00
0.000000000000000000e+00
0.000000000000000000e+00
0.000000000000000000e+00
0.000000000000000000e+00
0.000000000000000000e+00
0.000000000000000000e+00
0.000000000000000000e+00
0.000000000000000000e+00
0.000000000000000000e+00
0.000000000000000000e+00
0.000000000000000000e+00
0.000000000000000000e+00
0.000000000000000000e+00
0.000000000000000000e+00
0.000000000000000000e+00
0.000000000000000000e+00
0.000000000000000000e+00
0.000000000000000000e+00
0.000000000000000000e+00
0.000000000000000000e+00
0.000000000000000000e+00
0.000000000000000000e+00
0.000000000000000000e+00
0.000000000000000000e+00
0.000000000000000000e+00
0.000000000000000000e+00
0.000000000000000000e+00
0.000000000000000000e+00
0.000000000000000000e+00
0.000000000000000000e+00
0.000000000000000000e+00
0.000000000000000000e+00
0.000000000000000000e+00
0.000000000000000000e+00
0.000000000000000000e+00
0.000000000000000000e+00
0.000000000000000000e+00
0.000000000000000000e+00
0.000000000000000000e+00
0.000000000000000000e+00
0.000000000000000000e+00
0.000000000000000000e+00
0.000000000000000000e+00
0.000000000000000000e+00
0.000000000000000000e+00
0.000000000000000000e+00
0.000000000000000000e+00
0.000000000000000000e+00
0.000000000000000000e+00
0.000000000000000000e+00
0.000000000000000000e+00
0.000000000000000000e+00
0.000000000000000000e+00
0.000000000000000000e+00
0.000000000000000000e+00
0.000000000000000000e+00
0.000000000000000000e+00
0.000000000000000000e+00
0.000000000000000000e+00
0.000000000000000000e+00
0.000000000000000000e+00
0.000000000000000000e+00
0.000000000000000000e+00
0.000000000000000000e+00
0.000000000000000000e+00
0.000000000000000000e+00
0.000000000000000000e+00
0.000000000000000000e+00
0.000000000000000000e+00
0.000000000000000000e+00
0.000000000000000000e+00
0.000000000000000000e+00
0.000000000000000000e+00
0.000000000000000000e+00
0.000000000000000000e+00
0.000000000000000000e+00
0.000000000000000000e+00
0.000000000000000000e+00
0.000000000000000000e+00
0.000000000000000000e+00
0.000000000000000000e+00
0.000000000000000000e+00
0.000000000000000000e+00
0.000000000000000000e+00
0.000000000000000000e+00
0.000000000000000000e+00
0.000000000000000000e+00
0.000000000000000000e+00
0.000000000000000000e+00
0.000000000000000000e+00
0.000000000000000000e+00
0.000000000000000000e+00
0.000000000000000000e+00
0.000000000000000000e+00
0.000000000000000000e+00
0.000000000000000000e+00
0.000000000000000000e+00
0.000000000000000000e+00
0.000000000000000000e+00
0.000000000000000000e+00
0.000000000000000000e+00
0.000000000000000000e+00
0.000000000000000000e+00
0.000000000000000000e+00
0.000000000000000000e+00
0.000000000000000000e+00
0.000000000000000000e+00
0.000000000000000000e+00
0.000000000000000000e+00
0.000000000000000000e+00
0.000000000000000000e+00
0.000000000000000000e+00
0.000000000000000000e+00
0.000000000000000000e+00
0.000000000000000000e+00
0.000000000000000000e+00
0.000000000000000000e+00
0.000000000000000000e+00
0.000000000000000000e+00
0.000000000000000000e+00
0.000000000000000000e+00
0.000000000000000000e+00
0.000000000000000000e+00
0.000000000000000000e+00
0.000000000000000000e+00
0.000000000000000000e+00
0.000000000000000000e+00
0.000000000000000000e+00
0.000000000000000000e+00
0.000000000000000000e+00
0.000000000000000000e+00
0.000000000000000000e+00
0.000000000000000000e+00
0.000000000000000000e+00
0.000000000000000000e+00
0.000000000000000000e+00
0.000000000000000000e+00
0.000000000000000000e+00
0.000000000000000000e+00
0.000000000000000000e+00
0.000000000000000000e+00
0.000000000000000000e+00
0.000000000000000000e+00
0.000000000000000000e+00
0.000000000000000000e+00
0.000000000000000000e+00
0.000000000000000000e+00
0.000000000000000000e+00
0.000000000000000000e+00
0.000000000000000000e+00
0.000000000000000000e+00
0.000000000000000000e+00
0.000000000000000000e+00
0.000000000000000000e+00
0.000000000000000000e+00
0.000000000000000000e+00
0.000000000000000000e+00
0.000000000000000000e+00
0.000000000000000000e+00
0.000000000000000000e+00
0.000000000000000000e+00
0.000000000000000000e+00
0.000000000000000000e+00
0.000000000000000000e+00
0.000000000000000000e+00
0.000000000000000000e+00
0.000000000000000000e+00
0.000000000000000000e+00
0.000000000000000000e+00
0.000000000000000000e+00
0.000000000000000000e+00
0.000000000000000000e+00
0.000000000000000000e+00
0.000000000000000000e+00
0.000000000000000000e+00
0.000000000000000000e+00
0.000000000000000000e+00
0.000000000000000000e+00
0.000000000000000000e+00
0.000000000000000000e+00
0.000000000000000000e+00
0.000000000000000000e+00
0.000000000000000000e+00
0.000000000000000000e+00
0.000000000000000000e+00
0.000000000000000000e+00
0.000000000000000000e+00
0.000000000000000000e+00
0.000000000000000000e+00
0.000000000000000000e+00
0.000000000000000000e+00
0.000000000000000000e+00
0.000000000000000000e+00
0.000000000000000000e+00
0.000000000000000000e+00
0.000000000000000000e+00
0.000000000000000000e+00
0.000000000000000000e+00
0.000000000000000000e+00
0.000000000000000000e+00
0.000000000000000000e+00
0.000000000000000000e+00
0.000000000000000000e+00
0.000000000000000000e+00
0.000000000000000000e+00
0.000000000000000000e+00
0.000000000000000000e+00
0.000000000000000000e+00
0.000000000000000000e+00
0.000000000000000000e+00
0.000000000000000000e+00
0.000000000000000000e+00
0.000000000000000000e+00
0.000000000000000000e+00
0.000000000000000000e+00
0.000000000000000000e+00
0.000000000000000000e+00
0.000000000000000000e+00
0.000000000000000000e+00
0.000000000000000000e+00
0.000000000000000000e+00
0.000000000000000000e+00
0.000000000000000000e+00
0.000000000000000000e+00
0.000000000000000000e+00
0.000000000000000000e+00
0.000000000000000000e+00
0.000000000000000000e+00
0.000000000000000000e+00
0.000000000000000000e+00
0.000000000000000000e+00
0.000000000000000000e+00
0.000000000000000000e+00
0.000000000000000000e+00
0.000000000000000000e+00
0.000000000000000000e+00
0.000000000000000000e+00
0.000000000000000000e+00
0.000000000000000000e+00
0.000000000000000000e+00
0.000000000000000000e+00
0.000000000000000000e+00
0.000000000000000000e+00
0.000000000000000000e+00
0.000000000000000000e+00
0.000000000000000000e+00
0.000000000000000000e+00
0.000000000000000000e+00
0.000000000000000000e+00
0.000000000000000000e+00
0.000000000000000000e+00
0.000000000000000000e+00
0.000000000000000000e+00
0.000000000000000000e+00
0.000000000000000000e+00
0.000000000000000000e+00
0.000000000000000000e+00
4.882809999999999581e-03
4.882809999999999581e-03
4.882809999999999581e-03
4.882809999999999581e-03
4.882809999999999581e-03
4.882809999999999581e-03
4.882809999999999581e-03
4.882809999999999581e-03
4.882809999999999581e-03
4.882809999999999581e-03
4.882809999999999581e-03
4.882809999999999581e-03
4.882809999999999581e-03
4.882809999999999581e-03
4.882809999999999581e-03
4.882809999999999581e-03
4.882809999999999581e-03
4.882809999999999581e-03
4.882809999999999581e-03
4.882809999999999581e-03
4.882809999999999581e-03
4.882809999999999581e-03
4.882809999999999581e-03
4.882809999999999581e-03
4.882809999999999581e-03
4.882809999999999581e-03
4.882809999999999581e-03
4.882809999999999581e-03
4.882809999999999581e-03
4.882809999999999581e-03
4.882809999999999581e-03
4.882809999999999581e-03
4.882809999999999581e-03
4.882809999999999581e-03
4.882809999999999581e-03
4.882809999999999581e-03
4.882809999999999581e-03
4.882809999999999581e-03
4.882809999999999581e-03
4.882809999999999581e-03
4.882809999999999581e-03
4.882809999999999581e-03
4.882809999999999581e-03
4.882809999999999581e-03
4.882809999999999581e-03
4.882809999999999581e-03
4.882809999999999581e-03
4.882809999999999581e-03
4.882809999999999581e-03
4.882809999999999581e-03
4.882809999999999581e-03
4.882809999999999581e-03
4.882809999999999581e-03
4.882809999999999581e-03
4.882809999999999581e-03
4.882809999999999581e-03
4.882809999999999581e-03
4.882809999999999581e-03
4.882809999999999581e-03
4.882809999999999581e-03
4.882809999999999581e-03
4.882809999999999581e-03
4.882809999999999581e-03
4.882809999999999581e-03
4.882809999999999581e-03
4.882809999999999581e-03
4.882809999999999581e-03
4.882809999999999581e-03
4.882809999999999581e-03
4.882809999999999581e-03
4.882809999999999581e-03
4.882809999999999581e-03
4.882809999999999581e-03
4.882809999999999581e-03
4.882809999999999581e-03
4.882809999999999581e-03
4.882809999999999581e-03
4.882809999999999581e-03
4.882809999999999581e-03
4.882809999999999581e-03